# 170112 2015 pa3 150GHz instant
# pivot_ell = 1400
# norm_ell = 0
# solid angle = 257.68 nsr
0.000000  1.00000e+00
0.001042  9.95075e-01
0.002083  9.80435e-01
0.003125  9.56484e-01
0.004167  9.23876e-01
0.005208  8.83490e-01
0.006250  8.36391e-01
0.007292  7.83794e-01
0.008333  7.27013e-01
0.009375  6.67411e-01
0.010417  6.06353e-01
0.011458  5.45154e-01
0.012500  4.85041e-01
0.013542  4.27109e-01
0.014583  3.72297e-01
0.015625  3.21362e-01
0.016667  2.74867e-01
0.017708  2.33180e-01
0.018750  1.96479e-01
0.019792  1.64760e-01
0.020833  1.37866e-01
0.021875  1.15501e-01
0.022917  9.72672e-02
0.023958  8.26914e-02
0.025000  7.12550e-02
0.026042  6.24236e-02
0.027083  5.56730e-02
0.028125  5.05113e-02
0.029167  4.64964e-02
0.030208  4.32487e-02
0.031250  4.04584e-02
0.032292  3.78878e-02
0.033333  3.53701e-02
0.034375  3.28031e-02
0.035417  3.01407e-02
0.036458  2.73828e-02
0.037500  2.45634e-02
0.038542  2.17392e-02
0.039583  1.89781e-02
0.040625  1.63499e-02
0.041667  1.39179e-02
0.042708  1.17332e-02
0.043750  9.83076e-03
0.044792  8.22774e-03
0.045833  6.92357e-03
0.046875  5.90179e-03
0.047917  5.13298e-03
0.048958  4.57843e-03
0.050000  4.19418e-03
0.051042  3.93496e-03
0.052083  3.75777e-03
0.053125  3.62472e-03
0.054167  3.50513e-03
0.055208  3.37672e-03
0.056250  3.22585e-03
0.057292  3.04703e-03
0.058333  2.84179e-03
0.059375  2.61705e-03
0.060417  2.38326e-03
0.061458  2.15248e-03
0.062500  1.93665e-03
0.063542  1.74601e-03
0.064583  1.58810e-03
0.065625  1.46702e-03
0.066667  1.38327e-03
0.067708  1.33395e-03
0.068750  1.31331e-03
0.069792  1.31360e-03
0.070833  1.32598e-03
0.071875  1.34154e-03
0.072917  1.35217e-03
0.073958  1.35132e-03
0.075000  1.33453e-03
0.076042  1.29967e-03
0.077083  1.24696e-03
0.078125  1.17872e-03
0.079167  1.09895e-03
0.080208  1.01276e-03
0.081250  9.25755e-04
0.082292  8.43372e-04
0.083333  7.70346e-04
0.084375  7.10250e-04
0.085417  6.65210e-04
0.086458  6.35780e-04
0.087500  6.20995e-04
0.088542  6.18569e-04
0.089583  6.25222e-04
0.090625  6.37081e-04
0.091667  6.50114e-04
0.092708  6.60551e-04
0.093750  6.65252e-04
0.094792  6.61980e-04
0.095833  6.49568e-04
0.096875  6.27963e-04
0.097917  5.98153e-04
0.098958  5.61998e-04
0.100000  5.21971e-04
0.101042  4.80866e-04
0.102083  4.41483e-04
0.103125  4.06333e-04
0.104167  3.77397e-04
0.105208  3.55949e-04
0.106250  3.42461e-04
0.107292  3.36603e-04
0.108333  3.37320e-04
0.109375  3.42981e-04
0.110417  3.51577e-04
0.111458  3.60951e-04
0.112500  3.69024e-04
0.113542  3.74008e-04
0.114583  3.74569e-04
0.115625  3.69940e-04
0.116667  3.59970e-04
0.117708  3.45100e-04
0.118750  3.26292e-04
0.119792  3.04894e-04
0.120833  2.82480e-04
0.121875  2.60680e-04
0.122917  2.40999e-04
0.123958  2.24674e-04
0.125000  2.12553e-04
0.126042  2.05029e-04
0.127083  2.02019e-04
0.128125  2.02997e-04
0.129167  2.07066e-04
0.130208  2.13072e-04
0.131250  2.19732e-04
0.132292  2.25774e-04
0.133333  2.30065e-04
0.134375  2.31725e-04
0.135417  2.30203e-04
0.136458  2.25318e-04
0.137500  2.17262e-04
0.138542  2.06564e-04
0.139583  1.94013e-04
0.140625  1.80574e-04
0.141667  1.67270e-04
0.142708  1.55081e-04
0.143750  1.44837e-04
0.144792  1.37145e-04
0.145833  1.32328e-04
0.146875  1.30409e-04
0.147917  1.31120e-04
0.148958  1.33938e-04
0.150000  1.38153e-04
0.151042  1.42949e-04
0.152083  1.47490e-04
0.153125  1.51010e-04
0.154167  1.52889e-04
0.155208  1.52709e-04
0.156250  1.50291e-04
0.157292  1.45702e-04
0.158333  1.39241e-04
0.159375  1.31397e-04
0.160417  1.22788e-04
0.161458  1.14097e-04
0.162500  1.05995e-04
0.163542  9.90711e-05
0.164583  9.37767e-05
0.165625  9.03819e-05
0.166667  8.89550e-05
0.167708  8.93622e-05
0.168750  9.12890e-05
0.169792  9.42797e-05
0.170833  9.77889e-05
0.171875  1.01242e-04
0.172917  1.04096e-04
0.173958  1.05893e-04
0.175000  1.06306e-04
0.176042  1.05168e-04
0.177083  1.02484e-04
0.178125  9.84228e-05
0.179167  9.32938e-05
0.180208  8.75116e-05
0.181250  8.15480e-05
0.182292  7.58807e-05
0.183333  7.09440e-05
0.184375  6.70848e-05
0.185417  6.45294e-05
0.186458  6.33637e-05
0.187500  6.35296e-05
0.188542  6.48350e-05
0.189583  6.69784e-05
0.190625  6.95837e-05
0.191667  7.22418e-05
0.192708  7.45538e-05
0.193750  7.61725e-05
0.194792  7.68363e-05
0.195833  7.63939e-05
0.196875  7.48162e-05
0.197917  7.21956e-05
0.198958  6.87327e-05
0.200000  6.47114e-05
0.201042  6.04673e-05
0.202083  5.63507e-05
0.203125  5.26901e-05
0.204167  4.97584e-05
0.205208  4.77460e-05
0.206250  4.67440e-05
0.207292  4.67371e-05
0.208333  4.76087e-05
0.209375  4.91558e-05
0.210417  5.11128e-05
0.211458  5.31811e-05
0.212500  5.50607e-05
0.213542  5.64817e-05
0.214583  5.72314e-05
0.215625  5.71746e-05
0.216667  5.62656e-05
0.217708  5.45504e-05
0.218750  5.21588e-05
0.219792  4.92889e-05
0.220833  4.61843e-05
0.221875  4.31076e-05
0.222917  4.03123e-05
0.223958  3.80167e-05
0.225000  3.63821e-05
0.226042  3.54978e-05
0.227083  3.53734e-05
0.228125  3.59403e-05
0.229167  3.70607e-05
0.230208  3.85439e-05
0.231250  4.01679e-05
0.232292  4.17027e-05
0.233333  4.29350e-05
0.234375  4.36897e-05
0.235417  4.38471e-05
0.236458  4.33539e-05
0.237500  4.22271e-05
0.238542  4.05501e-05
0.239583  3.84623e-05
0.240625  3.61433e-05
0.241667  3.37930e-05
0.242708  3.16101e-05
0.243750  2.97716e-05
0.244792  2.84147e-05
0.245833  2.76239e-05
0.246875  2.74230e-05
0.247917  2.77744e-05
0.248958  2.85848e-05
0.250000  2.97159e-05
0.251042  3.10001e-05
0.252083  3.22589e-05
0.253125  3.33213e-05
0.254167  3.40418e-05
0.255208  3.43149e-05
0.256250  3.40850e-05
0.257292  3.33507e-05
0.258333  3.21642e-05
0.259375  3.06241e-05
0.260417  2.88641e-05
0.261458  2.70380e-05
0.262500  2.53036e-05
0.263542  2.38058e-05
0.264583  2.26620e-05
0.265625  2.19501e-05
0.266667  2.17018e-05
0.267708  2.19003e-05
0.268750  2.24826e-05
0.269792  2.33481e-05
0.270833  2.43692e-05
0.271875  2.54056e-05
0.272917  2.63189e-05
0.273958  2.69874e-05
0.275000  2.73183e-05
0.276042  2.72563e-05
0.277083  2.67891e-05
0.278125  2.59473e-05
0.279167  2.48002e-05
0.280208  2.34480e-05
0.281250  2.20105e-05
0.282292  2.06138e-05
0.283333  1.93775e-05
0.284375  1.84023e-05
0.285417  1.77595e-05
0.286458  1.74845e-05
0.287500  1.75740e-05
0.288542  1.79869e-05
0.289583  1.86496e-05
0.290625  1.94645e-05
0.291667  2.03204e-05
0.292708  2.11045e-05
0.293750  2.17144e-05
0.294792  2.20684e-05
0.295833  2.21135e-05
0.296875  2.18305e-05
0.297917  2.12352e-05
0.298958  2.03759e-05
0.300000  1.93278e-05
0.301042  1.81844e-05
0.302083  1.70477e-05
0.303125  1.60170e-05
0.304167  1.51785e-05
0.305208  1.45972e-05
0.306250  1.43098e-05
0.307292  1.43219e-05
0.308333  1.46078e-05
0.309375  1.51142e-05
0.310417  1.57659e-05
0.311458  1.64744e-05
0.312500  1.71472e-05
0.313542  1.76977e-05
0.314583  1.80540e-05
0.315625  1.81664e-05
0.316667  1.80116e-05
0.317708  1.75951e-05
0.318750  1.69499e-05
0.319792  1.61324e-05
0.320833  1.52159e-05
0.321875  1.42831e-05
0.322917  1.34169e-05
0.323958  1.26916e-05
0.325000  1.21656e-05
0.326042  1.18757e-05
0.327083  1.18331e-05
0.328125  1.20234e-05
0.329167  1.24081e-05
0.330208  1.29296e-05
0.331250  1.35169e-05
0.332292  1.40940e-05
0.333333  1.45873e-05
0.334375  1.49337e-05
0.335417  1.50868e-05
0.336458  1.50216e-05
0.337500  1.47363e-05
0.338542  1.42526e-05
0.339583  1.36124e-05
0.340625  1.28735e-05
0.341667  1.21032e-05
0.342708  1.13706e-05
0.343750  1.07402e-05
0.344792  1.02643e-05
0.345833  9.97853e-06
0.346875  9.89787e-06
0.347917  1.00158e-05
0.348958  1.03054e-05
0.350000  1.07221e-05
0.351042  1.12093e-05
0.352083  1.17041e-05
0.353125  1.21438e-05
0.354167  1.24732e-05
0.355208  1.26495e-05
0.356250  1.26467e-05
0.357292  1.24584e-05
0.358333  1.20977e-05
0.359375  1.15956e-05
0.360417  1.09974e-05
0.361458  1.03581e-05
0.362500  9.73571e-06
0.363542  9.18578e-06
0.364583  8.75533e-06
0.365625  8.47819e-06
0.366667  8.37161e-06
0.367708  8.43482e-06
0.368750  8.64937e-06
0.369792  8.98140e-06
0.370833  9.38543e-06
0.371875  9.80935e-06
0.372917  1.01999e-05
0.373958  1.05085e-05
0.375000  1.06959e-05
0.376042  1.07363e-05
0.377083  1.06200e-05
0.378125  1.03538e-05
0.379167  9.96026e-06
0.380208  9.47489e-06
0.381250  8.94237e-06
0.382292  8.41162e-06
0.383333  7.93062e-06
0.384375  7.54143e-06
0.385417  7.27587e-06
0.386458  7.15234e-06
0.387500  7.17416e-06
0.388542  7.32945e-06
0.389583  7.59260e-06
0.390625  7.92723e-06
0.391667  8.29015e-06
0.392708  8.63599e-06
0.393750  8.92198e-06
0.394792  9.11241e-06
0.395833  9.18222e-06
0.396875  9.11949e-06
0.397917  8.92641e-06
0.398958  8.61889e-06
0.400000  8.22462e-06
0.401042  7.77999e-06
0.402083  7.32615e-06
0.403125  6.90463e-06
0.404167  6.55294e-06
0.405208  6.30075e-06
0.406250  6.16690e-06
0.407292  6.15758e-06
0.408333  6.26591e-06
0.409375  6.47283e-06
0.410417  6.74934e-06
0.411458  7.05963e-06
0.412500  7.36502e-06
0.413542  7.62797e-06
0.414583  7.81605e-06
0.415625  7.90524e-06
0.416667  7.88231e-06
0.417708  7.74604e-06
0.418750  7.50717e-06
0.419792  7.18704e-06
0.420833  6.81529e-06
0.421875  6.42650e-06
0.422917  6.05659e-06
0.423958  5.73899e-06
0.425000  5.50118e-06
0.426042  5.36191e-06
0.427083  5.32936e-06
0.428125  5.40045e-06
0.429167  5.56132e-06
0.430208  5.78899e-06
0.431250  6.05382e-06
0.432292  6.32282e-06
0.433333  6.56308e-06
0.434375  6.74524e-06
0.435417  6.84653e-06
0.436458  6.85302e-06
0.437500  6.76101e-06
0.438542  6.57717e-06
0.439583  6.31778e-06
0.440625  6.00683e-06
0.441667  5.67339e-06
0.442708  5.34851e-06
0.443750  5.06191e-06
0.444792  4.83893e-06
0.445833  4.69786e-06
0.446875  4.64821e-06
0.447917  4.68978e-06
0.448958  4.81286e-06
0.450000  4.99937e-06
0.451042  5.22488e-06
0.452083  5.46124e-06
0.453125  5.67964e-06
0.454167  5.85359e-06
0.455208  5.96166e-06
0.456250  5.98970e-06
0.457292  5.93218e-06
0.458333  5.79266e-06
0.459375  5.58326e-06
0.460417  5.32333e-06
0.461458  5.03723e-06
0.462500  4.75179e-06
0.463542  4.49340e-06
0.464583  4.28528e-06
0.465625  4.14507e-06
0.466667  4.08309e-06
0.467708  4.10133e-06
0.468750  4.19335e-06
0.469792  4.34512e-06
0.470833  4.53656e-06
0.471875  4.74372e-06
0.472917  4.94138e-06
0.473958  5.10571e-06
0.475000  5.21670e-06
0.476042  5.26026e-06
0.477083  5.22961e-06
0.478125  5.12585e-06
0.479167  4.95777e-06
0.480208  4.74083e-06
0.481250  4.49541e-06
0.482292  4.24463e-06
0.483333  4.01190e-06
0.484375  3.81842e-06
0.485417  3.68102e-06
0.486458  3.61044e-06
0.487500  3.61030e-06
0.488542  3.67679e-06
0.489583  3.79919e-06
0.490625  3.96108e-06
0.491667  4.14214e-06
0.492708  4.32035e-06
0.493750  4.47427e-06
0.494792  4.58537e-06
0.495833  4.63983e-06
0.496875  4.63003e-06
0.497917  4.55517e-06
0.498958  4.42135e-06
0.500000  4.24078e-06
