# 170112 2015 pa3 90GHz instant
# pivot_ell = 1400
# norm_ell = 0
# solid angle = 530.42 nsr
0.000000  1.00000e+00
0.001042  9.97528e-01
0.002083  9.90146e-01
0.003125  9.77952e-01
0.004167  9.61107e-01
0.005208  9.39832e-01
0.006250  9.14404e-01
0.007292  8.85151e-01
0.008333  8.52446e-01
0.009375  8.16698e-01
0.010417  7.78345e-01
0.011458  7.37850e-01
0.012500  6.95687e-01
0.013542  6.52336e-01
0.014583  6.08273e-01
0.015625  5.63966e-01
0.016667  5.19861e-01
0.017708  4.76381e-01
0.018750  4.33917e-01
0.019792  3.92825e-01
0.020833  3.53418e-01
0.021875  3.15965e-01
0.022917  2.80691e-01
0.023958  2.47771e-01
0.025000  2.17334e-01
0.026042  1.89460e-01
0.027083  1.64187e-01
0.028125  1.41506e-01
0.029167  1.21374e-01
0.030208  1.03707e-01
0.031250  8.83953e-02
0.032292  7.52989e-02
0.033333  6.42587e-02
0.034375  5.50989e-02
0.035417  4.76328e-02
0.036458  4.16674e-02
0.037500  3.70083e-02
0.038542  3.34636e-02
0.039583  3.08481e-02
0.040625  2.89866e-02
0.041667  2.77162e-02
0.042708  2.68890e-02
0.043750  2.63736e-02
0.044792  2.60558e-02
0.045833  2.58395e-02
0.046875  2.56463e-02
0.047917  2.54152e-02
0.048958  2.51015e-02
0.050000  2.46754e-02
0.051042  2.41210e-02
0.052083  2.34336e-02
0.053125  2.26188e-02
0.054167  2.16897e-02
0.055208  2.06656e-02
0.056250  1.95697e-02
0.057292  1.84274e-02
0.058333  1.72650e-02
0.059375  1.61079e-02
0.060417  1.49799e-02
0.061458  1.39017e-02
0.062500  1.28908e-02
0.063542  1.19606e-02
0.064583  1.11205e-02
0.065625  1.03757e-02
0.066667  9.72742e-03
0.067708  9.17342e-03
0.068750  8.70819e-03
0.069792  8.32371e-03
0.070833  8.00993e-03
0.071875  7.75549e-03
0.072917  7.54833e-03
0.073958  7.37627e-03
0.075000  7.22757e-03
0.076042  7.09139e-03
0.077083  6.95821e-03
0.078125  6.82005e-03
0.079167  6.67074e-03
0.080208  6.50595e-03
0.081250  6.32319e-03
0.082292  6.12176e-03
0.083333  5.90256e-03
0.084375  5.66786e-03
0.085417  5.42105e-03
0.086458  5.16634e-03
0.087500  4.90847e-03
0.088542  4.65237e-03
0.089583  4.40291e-03
0.090625  4.16461e-03
0.091667  3.94145e-03
0.092708  3.73667e-03
0.093750  3.55265e-03
0.094792  3.39087e-03
0.095833  3.25183e-03
0.096875  3.13513e-03
0.097917  3.03951e-03
0.098958  2.96297e-03
0.100000  2.90291e-03
0.101042  2.85629e-03
0.102083  2.81980e-03
0.103125  2.79000e-03
0.104167  2.76353e-03
0.105208  2.73727e-03
0.106250  2.70842e-03
0.107292  2.67466e-03
0.108333  2.63418e-03
0.109375  2.58580e-03
0.110417  2.52890e-03
0.111458  2.46349e-03
0.112500  2.39012e-03
0.113542  2.30980e-03
0.114583  2.22399e-03
0.115625  2.13442e-03
0.116667  2.04302e-03
0.117708  1.95182e-03
0.118750  1.86281e-03
0.119792  1.77785e-03
0.120833  1.69861e-03
0.121875  1.62644e-03
0.122917  1.56238e-03
0.123958  1.50705e-03
0.125000  1.46070e-03
0.126042  1.42318e-03
0.127083  1.39398e-03
0.128125  1.37226e-03
0.129167  1.35691e-03
0.130208  1.34661e-03
0.131250  1.33992e-03
0.132292  1.33533e-03
0.133333  1.33134e-03
0.134375  1.32658e-03
0.135417  1.31978e-03
0.136458  1.30991e-03
0.137500  1.29617e-03
0.138542  1.27803e-03
0.139583  1.25525e-03
0.140625  1.22786e-03
0.141667  1.19617e-03
0.142708  1.16072e-03
0.143750  1.12225e-03
0.144792  1.08164e-03
0.145833  1.03989e-03
0.146875  9.98051e-04
0.147917  9.57140e-04
0.148958  9.18135e-04
0.150000  8.81902e-04
0.151042  8.49163e-04
0.152083  8.20465e-04
0.153125  7.96157e-04
0.154167  7.76381e-04
0.155208  7.61076e-04
0.156250  7.49982e-04
0.157292  7.42664e-04
0.158333  7.38539e-04
0.159375  7.36909e-04
0.160417  7.36999e-04
0.161458  7.37997e-04
0.162500  7.39096e-04
0.163542  7.39535e-04
0.164583  7.38627e-04
0.165625  7.35798e-04
0.166667  7.30603e-04
0.167708  7.22751e-04
0.168750  7.12104e-04
0.169792  6.98684e-04
0.170833  6.82666e-04
0.171875  6.64358e-04
0.172917  6.44187e-04
0.173958  6.22669e-04
0.175000  6.00383e-04
0.176042  5.77938e-04
0.177083  5.55943e-04
0.178125  5.34974e-04
0.179167  5.15552e-04
0.180208  4.98112e-04
0.181250  4.82989e-04
0.182292  4.70404e-04
0.183333  4.60454e-04
0.184375  4.53113e-04
0.185417  4.48238e-04
0.186458  4.45578e-04
0.187500  4.44788e-04
0.188542  4.45453e-04
0.189583  4.47107e-04
0.190625  4.49260e-04
0.191667  4.51417e-04
0.192708  4.53111e-04
0.193750  4.53916e-04
0.194792  4.53474e-04
0.195833  4.51505e-04
0.196875  4.47820e-04
0.197917  4.42328e-04
0.198958  4.35037e-04
0.200000  4.26049e-04
0.201042  4.15554e-04
0.202083  4.03816e-04
0.203125  3.91160e-04
0.204167  3.77951e-04
0.205208  3.64578e-04
0.206250  3.51433e-04
0.207292  3.38887e-04
0.208333  3.27281e-04
0.209375  3.16903e-04
0.210417  3.07976e-04
0.211458  3.00653e-04
0.212500  2.95006e-04
0.213542  2.91029e-04
0.214583  2.88638e-04
0.215625  2.87676e-04
0.216667  2.87927e-04
0.217708  2.89124e-04
0.218750  2.90965e-04
0.219792  2.93128e-04
0.220833  2.95290e-04
0.221875  2.97139e-04
0.222917  2.98390e-04
0.223958  2.98801e-04
0.225000  2.98179e-04
0.226042  2.96392e-04
0.227083  2.93373e-04
0.228125  2.89120e-04
0.229167  2.83695e-04
0.230208  2.77219e-04
0.231250  2.69865e-04
0.232292  2.61850e-04
0.233333  2.53418e-04
0.234375  2.44833e-04
0.235417  2.36359e-04
0.236458  2.28255e-04
0.237500  2.20756e-04
0.238542  2.14063e-04
0.239583  2.08336e-04
0.240625  2.03687e-04
0.241667  2.00173e-04
0.242708  1.97798e-04
0.243750  1.96510e-04
0.244792  1.96208e-04
0.245833  1.96749e-04
0.246875  1.97952e-04
0.247917  1.99611e-04
0.248958  2.01503e-04
0.250000  2.03405e-04
0.251042  2.05097e-04
0.252083  2.06378e-04
0.253125  2.07074e-04
0.254167  2.07046e-04
0.255208  2.06197e-04
0.256250  2.04471e-04
0.257292  2.01863e-04
0.258333  1.98409e-04
0.259375  1.94191e-04
0.260417  1.89327e-04
0.261458  1.83966e-04
0.262500  1.78279e-04
0.263542  1.72452e-04
0.264583  1.66674e-04
0.265625  1.61131e-04
0.266667  1.55993e-04
0.267708  1.51408e-04
0.268750  1.47496e-04
0.269792  1.44341e-04
0.270833  1.41990e-04
0.271875  1.40452e-04
0.272917  1.39695e-04
0.273958  1.39653e-04
0.275000  1.40225e-04
0.276042  1.41286e-04
0.277083  1.42688e-04
0.278125  1.44273e-04
0.279167  1.45878e-04
0.280208  1.47342e-04
0.281250  1.48519e-04
0.282292  1.49279e-04
0.283333  1.49515e-04
0.284375  1.49153e-04
0.285417  1.48148e-04
0.286458  1.46491e-04
0.287500  1.44204e-04
0.288542  1.41342e-04
0.289583  1.37988e-04
0.290625  1.34248e-04
0.291667  1.30247e-04
0.292708  1.26120e-04
0.293750  1.22008e-04
0.294792  1.18046e-04
0.295833  1.14364e-04
0.296875  1.11073e-04
0.297917  1.08266e-04
0.298958  1.06010e-04
0.300000  1.04344e-04
0.301042  1.03278e-04
0.302083  1.02794e-04
0.303125  1.02847e-04
0.304167  1.03365e-04
0.305208  1.04258e-04
0.306250  1.05417e-04
0.307292  1.06725e-04
0.308333  1.08061e-04
0.309375  1.09305e-04
0.310417  1.10343e-04
0.311458  1.11077e-04
0.312500  1.11424e-04
0.313542  1.11324e-04
0.314583  1.10741e-04
0.315625  1.09662e-04
0.316667  1.08101e-04
0.317708  1.06096e-04
0.318750  1.03707e-04
0.319792  1.01011e-04
0.320833  9.81016e-05
0.321875  9.50792e-05
0.322917  9.20500e-05
0.323958  8.91190e-05
0.325000  8.63846e-05
0.326042  8.39346e-05
0.327083  8.18416e-05
0.328125  8.01599e-05
0.329167  7.89228e-05
0.330208  7.81421e-05
0.331250  7.78071e-05
0.332292  7.78859e-05
0.333333  7.83274e-05
0.334375  7.90640e-05
0.335417  8.00153e-05
0.336458  8.10923e-05
0.337500  8.22017e-05
0.338542  8.32509e-05
0.339583  8.41524e-05
0.340625  8.48278e-05
0.341667  8.52118e-05
0.342708  8.52549e-05
0.343750  8.49260e-05
0.344792  8.42129e-05
0.345833  8.31232e-05
0.346875  8.16833e-05
0.347917  7.99366e-05
0.348958  7.79415e-05
0.350000  7.57680e-05
0.351042  7.34938e-05
0.352083  7.12009e-05
0.353125  6.89710e-05
0.354167  6.68819e-05
0.355208  6.50032e-05
0.356250  6.33936e-05
0.357292  6.20977e-05
0.358333  6.11444e-05
0.359375  6.05455e-05
0.360417  6.02954e-05
0.361458  6.03720e-05
0.362500  6.07377e-05
0.363542  6.13414e-05
0.364583  6.21217e-05
0.365625  6.30098e-05
0.366667  6.39330e-05
0.367708  6.48184e-05
0.368750  6.55964e-05
0.369792  6.62043e-05
0.370833  6.65888e-05
0.371875  6.67090e-05
0.372917  6.65379e-05
0.373958  6.60637e-05
0.375000  6.52898e-05
0.376042  6.42346e-05
0.377083  6.29304e-05
0.378125  6.14216e-05
0.379167  5.97621e-05
0.380208  5.80126e-05
0.381250  5.62377e-05
0.382292  5.45021e-05
0.383333  5.28683e-05
0.384375  5.13927e-05
0.385417  5.01233e-05
0.386458  4.90975e-05
0.387500  4.83404e-05
0.388542  4.78635e-05
0.389583  4.76647e-05
0.390625  4.77284e-05
0.391667  4.80267e-05
0.392708  4.85205e-05
0.393750  4.91621e-05
0.394792  4.98975e-05
0.395833  5.06690e-05
0.396875  5.14182e-05
0.397917  5.20890e-05
0.398958  5.26302e-05
0.400000  5.29980e-05
0.401042  5.31578e-05
0.402083  5.30863e-05
0.403125  5.27718e-05
0.404167  5.22153e-05
0.405208  5.14295e-05
0.406250  5.04388e-05
0.407292  4.92772e-05
0.408333  4.79869e-05
0.409375  4.66160e-05
0.410417  4.52161e-05
0.411458  4.38395e-05
0.412500  4.25369e-05
0.413542  4.13546e-05
0.414583  4.03325e-05
0.415625  3.95025e-05
0.416667  3.88862e-05
0.417708  3.84949e-05
0.418750  3.83287e-05
0.419792  3.83767e-05
0.420833  3.86179e-05
0.421875  3.90220e-05
0.422917  3.95516e-05
0.423958  4.01635e-05
0.425000  4.08114e-05
0.426042  4.14479e-05
0.427083  4.20272e-05
0.428125  4.25068e-05
0.429167  4.28502e-05
0.430208  4.30280e-05
0.431250  4.30196e-05
0.432292  4.28142e-05
0.433333  4.24106e-05
0.434375  4.18180e-05
0.435417  4.10544e-05
0.436458  4.01466e-05
0.437500  3.91279e-05
0.438542  3.80369e-05
0.439583  3.69153e-05
0.440625  3.58059e-05
0.441667  3.47503e-05
0.442708  3.37871e-05
0.443750  3.29500e-05
0.444792  3.22659e-05
0.445833  3.17542e-05
0.446875  3.14254e-05
0.447917  3.12811e-05
0.448958  3.13138e-05
0.450000  3.15076e-05
0.451042  3.18390e-05
0.452083  3.22779e-05
0.453125  3.27897e-05
0.454167  3.33366e-05
0.455208  3.38799e-05
0.456250  3.43814e-05
0.457292  3.48058e-05
0.458333  3.51222e-05
0.459375  3.53053e-05
0.460417  3.53370e-05
0.461458  3.52070e-05
0.462500  3.49132e-05
0.463542  3.44616e-05
0.464583  3.38661e-05
0.465625  3.31476e-05
0.466667  3.23328e-05
0.467708  3.14530e-05
0.468750  3.05422e-05
0.469792  2.96358e-05
0.470833  2.87686e-05
0.471875  2.79728e-05
0.472917  2.72770e-05
0.473958  2.67047e-05
0.475000  2.62727e-05
0.476042  2.59911e-05
0.477083  2.58624e-05
0.478125  2.58817e-05
0.479167  2.60367e-05
0.480208  2.63089e-05
0.481250  2.66742e-05
0.482292  2.71044e-05
0.483333  2.75686e-05
0.484375  2.80343e-05
0.485417  2.84700e-05
0.486458  2.88456e-05
0.487500  2.91349e-05
0.488542  2.93159e-05
0.489583  2.93727e-05
0.490625  2.92956e-05
0.491667  2.90816e-05
0.492708  2.87348e-05
0.493750  2.82658e-05
0.494792  2.76909e-05
0.495833  2.70319e-05
0.496875  2.63142e-05
0.497917  2.55661e-05
0.498958  2.48169e-05
0.500000  2.40959e-05
